Timestamp,Input_Data,Model_Prediction_Class,Model_Prediction_Label,Model_Probabilities,Doctor_Classification_Class,Doctor_Classification_Label
2025-07-30 14:11:29,"0.7506631016731262,0.2625994682312012,0,0.07161803543567657,0.06896551698446274,0.058355439454317086,0.05570291727781296,0.050397876650094986,0.04509283974766731,0.058355439454317086,0.04509283974766731,0.04244031757116318,0.04774535819888114,0.04774535819888114,0.02652519941329956,0.03978779911994934,0.037135276943445206,0.050397876650094986,0.05305039882659912,0.05570291727781296,0.05570291727781296,0.08488063514232635,0.1034482792019844,0.11671087890863419,0.13527850806713104,0.14323607087135315,0.14323607087135315,0.16445623338222504,0.15915119647979736,0.15649867057800293,0.17241379618644714,0.16710875928401947,0.14588859677314758,0.14854110777378082,0.12732096016407013,0.12466843426227568,0.11671087890863419,0.11405835300683977,0.11671087890863419,0.11140583455562592,0.10610079765319824,0.10079575330018996,0.10079575330018996,0.10875331610441208,0.10875331610441208,0.1034482792019844,0.10610079765319824,0.09814323484897612,0.1034482792019844,0.11936339735984802,0.11671087890863419,0.11936339735984802,0.11671087890863419,0.12466843426227568,0.11936339735984802,0.11405835300683977,0.12466843426227568,0.11936339735984802,0.11936339735984802,0.12466843426227568,0.11140583455562592,0.11671087890863419,0.11936339735984802,0.11405835300683977,0.10079575330018996,0.11405835300683977,0.11671087890863419,0.12732096016407013,0.12997347116470337,0.1326259970664978,0.12732096016407013,0.1326259970664978,0.12997347116470337,0.11671087890863419,0.11936339735984802,0.11671087890863419,0.11405835300683977,0.12997347116470337,0.14323607087135315,0.14323607087135315,0.13793103396892548,0.13793103396892548,0.14854110777378082,0.1405835598707199,0.1538461595773697,0.14588859677314758,0.14588859677314758,0.14588859677314758,0.1405835598707199,0.1405835598707199,0.13527850806713104,0.14323607087135315,0.13793103396892548,0.1326259970664978,0.14323607087135315,0.14588859677314758,0.14588859677314758,0.15119363367557523,0.14854110777378082,0.14588859677314758,0.14323607087135315,0.14854110777378082,0.14854110777378082,0.15915119647979736,0.1618037074804306,0.15119363367557523,0.15649867057800293,0.1538461595773697,0.16445623338222504,0.1618037074804306,0.1697612702846527,0.17241379618644714,0.1697612702846527,0.1830238699913025,0.19363395869731903,0.23076923191547397,0.3289124667644501,0.5092838406562805,0.7692307829856871,1,0.7586206793785094,0.33421751856803894,0.14854110777378082,0.19893899559974673,0.15119363367557523,0.13793103396892548,0.11671087890863419,0.10610079765319824,0.11140583455562592,0.10875331610441208,0.10875331610441208,0.11671087890863419,0.10875331610441208,0.11405835300683977,0.1326259970664978,0.11671087890863419,0.11405835300683977,0.11936339735984802,0.12997347116470337,0.14588859677314758,0.12466843426227568,0.12201591581106185,0.14323607087135315,0.1618037074804306,0.1697612702846527,0.20159150660037997,0.22015915811061856,0.21750663220882413,0.22546419501304624,0.24933686852455136,0.22811670601367953,0,0,0,0,0,0,0,0,0,0,0,0,0,0,0,0,0,0,0,0,0,0,0,0,0,0,0,0,0,0,0,0,0,0,0",0,Class 0 : Normal,"0.9985826015472412,0.0014011779567226768,2.5040590116987005e-06,1.3632970876642503e-05",3,Class 3 : Unclassifiable Beat
2025-07-30 14:13:12,"0.7959595918655396,0.3696969747543335,0.10505050420761108,0.08686868846416473,0.07070706784725189,0.042424242943525314,0.13939394056797028,0.30909091234207153,0.42424243688583374,0.4282828271389008,0.4020202159881592,0.4464646577835083,0.456565648317337,0.4585858583450317,0.4767676889896393,0.4646464586257935,0.41616162657737726,0.4101009964942932,0.4343434274196625,0.3979797959327698,0.34545454382896423,0.3636363744735718,0.3676767647266388,0.3696969747543335,0.37373736500740046,0.37373736500740046,0.32121211290359497,0.3272727131843567,0.34949496388435364,0.361616164445877,0.38585859537124634,0.41414141654968256,0.4343434274196625,0.46666666865348816,0.4606060683727264,0.4747474789619446,0.4888888895511627,0.46868687868118286,0.4080808162689209,0.4606060683727264,0.4747474789619446,0.4363636374473572,0.4444444477558136,0.43838384747505194,0.4808080792427063,0.4464646577835083,0.3636363744735718,0.4080808162689209,0.42222222685813904,0.3939394056797028,0.3979797959327698,0.4363636374473572,0.42020201683044434,0.37373736500740046,0.4080808162689209,0.42424243688583374,0.3777777850627899,0.3696969747543335,0.3939394056797028,0.4121212065219879,0.4282828271389008,0.42020201683044434,0.3818181753158569,0.38585859537124634,0.4101009964942932,0.42626261711120605,0.43232324719429016,0.4767676889896393,0.3757575750350952,0.37373736500740046,0.4363636374473572,0.42424243688583374,0.4282828271389008,0.45252525806427,0.4101009964942932,0.4484848380088806,0.4949494898319244,0.4888888895511627,0.4747474789619446,0.4787878692150116,0.4848484992980957,0.4707070589065552,0.4101009964942932,0.43030303716659546,0.4949494898319244,0.4585858583450317,0.40606060624122614,0.41414141654968256,0.4181818068027496,0.4181818068027496,0.43030303716659546,0.43232324719429016,0.4181818068027496,0.38787877559661865,0.37979796528816223,0.42020201683044434,0.37979796528816223,0.3434343338012696,0.4585858583450317,0.5878787636756897,0.5979797840118408,0.8060606122016906,0.9858585596084594,0.644444465637207,0.26868686079978943,0.1494949460029602,0.016161616891622543,0.00808080844581127,0,0.016161616891622543,0.145454540848732,0.3252525329589844,0.38787877559661865,0.40404039621353144,0.40404039621353144,0.42020201683044434,0.38989898562431335,0.38585859537124634,0.39191919565200806,0.39595958590507513,0.3818181753158569,0.38787877559661865,0,0,0,0,0,0,0,0,0,0,0,0,0,0,0,0,0,0,0,0,0,0,0,0,0,0,0,0,0,0,0,0,0,0,0,0,0,0,0,0,0,0,0,0,0,0,0,0,0,0,0,0,0,0,0,0,0,0,0,0,0,0,0,0",2,Class 2 : Premature Ventricular Contraction,"0.00023514959320891649,0.0010609980672597885,0.9976394176483154,0.0010644306894391775",3,Class 3 : Unclassifiable Beat
2025-07-30 14:19:54,"1,0.9680729508399964,0.9042189121246336,0.906499445438385,0.8848346471786499,0.7799316048622131,0.6100342273712158,0.36716076731681824,0.2827822268009186,0.2964652180671692,0.2690992057323456,0.23945267498493197,0.23147092759609225,0.2303306758403778,0.2143671661615372,0.20524515211582184,0.19954389333724973,0.1984036415815353,0.18358038365840912,0.17331813275814056,0.16533637046813965,0.16419611871242523,0.15051311254501343,0.14595210552215576,0.14367160201072693,0.13683010637760162,0.13112884759902954,0.13112884759902954,0.1220068410038948,0.10376282781362532,0.08437856286764144,0.05587229132652283,0.021664766594767567,0.0057012541219592094,0,0.010262257419526575,0.034207526594400406,0.07867731153964995,0.108323834836483,0.1425313502550125,0.18586088716983795,0.21892815828323364,0.2428734302520752,0.2554161846637726,0.2645381987094879,0.2690992057323456,0.2690992057323456,0.2713797092437744,0.27251994609832764,0.27936145663261414,0.27480044960975647,0.2690992057323456,0.27822121977806086,0.2839224636554718,0.28734320402145386,0.28164196014404297,0.2827822268009186,0.2907639741897583,0.2884834706783294,0.2827822268009186,0.28620296716690063,0.29418471455574036,0.2896237075328827,0.28734320402145386,0.2907639741897583,0.29304447770118713,0.2896237075328827,0.28734320402145386,0.28734320402145386,0.295324981212616,0.29418471455574036,0.2884834706783294,0.2964652180671692,0.29988598823547363,0.2907639741897583,0.295324981212616,0.2964652180671692,0.3033067286014557,0.2976054847240448,0.2964652180671692,0.3033067286014557,0.30558723211288447,0.30102622509002686,0.298745721578598,0.29988598823547363,0.3078677356243133,0.29988598823547363,0.30558723211288447,0.3021664619445801,0.3090079724788666,0.30558723211288447,0.30558723211288447,0.30672746896743774,0.3090079724788666,0.30672746896743774,0.3078677356243133,0.30672746896743774,0.3169897496700287,0.312428742647171,0.3078677356243133,0.3101482391357422,0.321550726890564,0.3112884759902954,0.312428742647171,0.3112884759902954,0.3181299865245819,0.31356897950172424,0.3090079724788666,0.3169897496700287,0.3181299865245819,0.321550726890564,0.31470924615859985,0.3112884759902954,0.3181299865245819,0.32041049003601074,0.3181299865245819,0.3169897496700287,0.3238312304019928,0.321550726890564,0.3181299865245819,0.3192702531814575,0.3238312304019928,0.32041049003601074,0.3181299865245819,0.3192702531814575,0.32725200057029724,0.3249714970588684,0.3181299865245819,0.3192702531814575,0.32725200057029724,0.3249714970588684,0.32041049003601074,0.3249714970588684,0.3306727409362793,0.32611173391342163,0.32839223742485046,0.33751425147056574,0.3534777760505676,0.3534777760505676,0.36488026380538946,0.38996580243110657,0.4104903042316437,0.3990877866744995,0.39794754981994634,0.38654503226280207,0.3603192567825317,0.32725200057029724,0.3169897496700287,0.32041049003601074,0.3249714970588684,0.3181299865245819,0.31470924615859985,0.31470924615859985,0.3238312304019928,0.3033067286014557,0.30444696545600886,0.402508556842804,0.6077536940574646,0.7970353364944458,0.8027365803718567,0.5724059343338013,0.30102622509002686,0.3386545181274414,0.37400227785110474,0.33409351110458374,0.3226909935474396,0.3249714970588684,0.312428742647171,0.31470924615859985,0.3192702531814575,0.31470924615859985,0.3112884759902954,0.30672746896743774,0.31470924615859985,0.3112884759902954,0.312428742647171,0.3078677356243133,0.31470924615859985,0.312428742647171,0.31356897950172424,0.3101482391357422,0,0,0,0,0",2,Class 2 : Premature Ventricular Contraction,"1.667072879740772e-08,1.6594210450193714e-08,0.9999992847442627,7.116535130080592e-07",2,Class 2 : Premature Ventricular Contraction
2025-07-30 16:36:54,"0.5256410241127014,0.035256411880254745,0.05448717996478081,0.12179487198591232,0.1378205120563507,0.12820513546466827,0.11538461595773696,0.11217948794364928,0.12820513546466827,0.10256410390138626,0.11538461595773696,0.11538461595773696,0.12179487198591232,0.1089743599295616,0.125,0.1089743599295616,0.11538461595773696,0.10576923191547392,0.11217948794364928,0.09935897588729857,0.1089743599295616,0.10256410390138626,0.10576923191547392,0.10256410390138626,0.0961538478732109,0.11538461595773696,0.10256410390138626,0.08012820780277251,0.07692307978868483,0.05128205195069313,0.05769230797886848,0.06410256773233414,0.08653846383094788,0.08333333581686019,0.125,0.12179487198591232,0.14102564752101898,0.12820513546466827,0.13461539149284363,0.1378205120563507,0.1666666716337204,0.16346153616905212,0.16346153616905212,0.1474359035491943,0.15705128014087677,0.14102564752101898,0.1474359035491943,0.14102564752101898,0.1474359035491943,0.1378205120563507,0.1538461595773697,0.1378205120563507,0.1378205120563507,0.125,0.13461539149284363,0.12820513546466827,0.14102564752101898,0.11538461595773696,0.1506410241127014,0.1378205120563507,0.14423076808452606,0.12179487198591232,0.13461539149284363,0.12820513546466827,0.14102564752101898,0.13141025602817535,0.1378205120563507,0.125,0.1378205120563507,0.13141025602817535,0.13141025602817535,0.11538461595773696,0.12820513546466827,0.11858974397182465,0.1378205120563507,0.12820513546466827,0.1378205120563507,0.125,0.13461539149284363,0.125,0.13141025602817535,0.13141025602817535,0.14423076808452606,0.13461539149284363,0.14423076808452606,0.14102564752101898,0.1474359035491943,0.1378205120563507,0.1474359035491943,0.13141025602817535,0.14423076808452606,0.16025641560554504,0.1923076957464218,0.1923076957464218,0.2211538404226303,0.1987179517745972,0.20512820780277247,0.19551281630992887,0.18269230425357816,0.1987179517745972,0.17628204822540283,0.13461539149284363,0.13461539149284363,0.11858974397182465,0.125,0.1089743599295616,0.11858974397182465,0.11217948794364928,0.12179487198591232,0.10256410390138626,0.06730769574642181,0,0.11858974397182465,0.4903846085071564,0.9967948794364928,0.8589743375778198,0.06730769574642181,0.07371795177459715,0.1089743599295616,0.0961538478732109,0.09935897588729857,0.07371795177459715,0.08012820780277251,0.07051282376050949,0.08333333581686019,0.07692307978868483,0.08653846383094788,0.07051282376050949,0.08012820780277251,0.07692307978868483,0.08333333581686019,0.07371795177459715,0.08333333581686019,0.08012820780277251,0,0,0,0,0,0,0,0,0,0,0,0,0,0,0,0,0,0,0,0,0,0,0,0,0,0,0,0,0,0,0,0,0,0,0,0,0,0,0,0,0,0,0,0,0,0,0,0,0,0,0,0",1,Class 1 : Supraventricular Premature Beat,"4.421448102220893e-05,0.9999556541442871,7.211154695596633e-08,5.708416517258286e-10",1,Class 1 : Supraventricular Premature Beat
2025-07-30 16:37:15,"0.8728323578834533,0.5279383659362793,0.2331406623125076,0.17533718049526215,0.1541425883769989,0.12716762721538544,0.13102120161056519,0.121387280523777,0.10789980739355089,0.09826589375734328,0.10404624044895172,0.09826589375734328,0.09441233426332472,0.080924853682518,0.07899807393550874,0.06936416029930115,0.05780346691608429,0.03660886362195015,0.038535647094249725,0.02119460515677929,0.005780346691608429,0.001926782308146357,0.001926782308146357,0,0.009633911773562431,0.032755300402641296,0.06165703386068344,0.10019268095493317,0.12524084746837616,0.14258189499378204,0.16955684125423431,0.1811175346374512,0.1772639751434326,0.16955684125423431,0.17919075489044187,0.1811175346374512,0.186897873878479,0.17341040074825287,0.17919075489044187,0.1772639751434326,0.17533718049526215,0.1714836210012436,0.1714836210012436,0.17341040074825287,0.17341040074825287,0.1714836210012436,0.18497109413146967,0.18497109413146967,0.1811175346374512,0.1714836210012436,0.17533718049526215,0.18497109413146967,0.18497109413146967,0.1772639751434326,0.17533718049526215,0.186897873878479,0.19460500776767728,0.2215799540281296,0.23699422180652616,0.24855491518974304,0.2697495222091675,0.3005780279636383,0.2928709089756012,0.2851637899875641,0.2678227424621582,0.2524084746837616,0.2331406623125076,0.20809248089790344,0.1772639751434326,0.16570328176021576,0.1772639751434326,0.1811175346374512,0.1772639751434326,0.17919075489044187,0.21579961478710172,0.3949903547763824,0.626204252243042,0.8111753463745117,0.9075144529342652,0.7861271500587462,0.4643545150756836,0.22928708791732788,0.19460500776767728,0.16570328176021576,0.10982658714056016,0.10211946070194244,0.1059730276465416,0.09826589375734328,0.09248554706573486,0.096339114010334,0.09248554706573486,0.08863198757171632,0,0,0,0,0,0,0,0,0,0,0,0,0,0,0,0,0,0,0,0,0,0,0,0,0,0,0,0,0,0,0,0,0,0,0,0,0,0,0,0,0,0,0,0,0,0,0,0,0,0,0,0,0,0,0,0,0,0,0,0,0,0,0,0,0,0,0,0,0,0,0,0,0,0,0,0,0,0,0,0,0,0,0,0,0,0,0,0,0,0,0,0,0,0",1,Class 1 : Supraventricular Premature Beat,"0.01492838840931654,0.9845772385597229,0.00047727307537570596,1.7140120689873584e-05",3,Class 3 : Unclassifiable Beat
2025-07-30 21:02:11,"0.7506631016731262,0.2625994682312012,0,0.07161803543567657,0.06896551698446274,0.058355439454317086,0.05570291727781296,0.050397876650094986,0.04509283974766731,0.058355439454317086,0.04509283974766731,0.04244031757116318,0.04774535819888114,0.04774535819888114,0.02652519941329956,0.03978779911994934,0.037135276943445206,0.050397876650094986,0.05305039882659912,0.05570291727781296,0.05570291727781296,0.08488063514232635,0.1034482792019844,0.11671087890863419,0.13527850806713104,0.14323607087135315,0.14323607087135315,0.16445623338222504,0.15915119647979736,0.15649867057800293,0.17241379618644714,0.16710875928401947,0.14588859677314758,0.14854110777378082,0.12732096016407013,0.12466843426227568,0.11671087890863419,0.11405835300683977,0.11671087890863419,0.11140583455562592,0.10610079765319824,0.10079575330018996,0.10079575330018996,0.10875331610441208,0.10875331610441208,0.1034482792019844,0.10610079765319824,0.09814323484897612,0.1034482792019844,0.11936339735984802,0.11671087890863419,0.11936339735984802,0.11671087890863419,0.12466843426227568,0.11936339735984802,0.11405835300683977,0.12466843426227568,0.11936339735984802,0.11936339735984802,0.12466843426227568,0.11140583455562592,0.11671087890863419,0.11936339735984802,0.11405835300683977,0.10079575330018996,0.11405835300683977,0.11671087890863419,0.12732096016407013,0.12997347116470337,0.1326259970664978,0.12732096016407013,0.1326259970664978,0.12997347116470337,0.11671087890863419,0.11936339735984802,0.11671087890863419,0.11405835300683977,0.12997347116470337,0.14323607087135315,0.14323607087135315,0.13793103396892548,0.13793103396892548,0.14854110777378082,0.1405835598707199,0.1538461595773697,0.14588859677314758,0.14588859677314758,0.14588859677314758,0.1405835598707199,0.1405835598707199,0.13527850806713104,0.14323607087135315,0.13793103396892548,0.1326259970664978,0.14323607087135315,0.14588859677314758,0.14588859677314758,0.15119363367557523,0.14854110777378082,0.14588859677314758,0.14323607087135315,0.14854110777378082,0.14854110777378082,0.15915119647979736,0.1618037074804306,0.15119363367557523,0.15649867057800293,0.1538461595773697,0.16445623338222504,0.1618037074804306,0.1697612702846527,0.17241379618644714,0.1697612702846527,0.1830238699913025,0.19363395869731903,0.23076923191547397,0.3289124667644501,0.5092838406562805,0.7692307829856871,1,0.7586206793785094,0.33421751856803894,0.14854110777378082,0.19893899559974673,0.15119363367557523,0.13793103396892548,0.11671087890863419,0.10610079765319824,0.11140583455562592,0.10875331610441208,0.10875331610441208,0.11671087890863419,0.10875331610441208,0.11405835300683977,0.1326259970664978,0.11671087890863419,0.11405835300683977,0.11936339735984802,0.12997347116470337,0.14588859677314758,0.12466843426227568,0.12201591581106185,0.14323607087135315,0.1618037074804306,0.1697612702846527,0.20159150660037997,0.22015915811061856,0.21750663220882413,0.22546419501304624,0.24933686852455136,0.22811670601367953,0,0,0,0,0,0,0,0,0,0,0,0,0,0,0,0,0,0,0,0,0,0,0,0,0,0,0,0,0,0,0,0,0,0,0",0,Class 0 : Normal,"0.9985826015472412,0.0014011779567226768,2.5040590116987005e-06,1.3632970876642503e-05",0,Class 0 : Normal
2025-07-30 21:12:33,"0.8807588219642638,0.6476964950561523,0.5989159941673279,0.2330623269081116,0.07046070694923401,0.08401083946228027,0.12466124445199966,0.24932248890399927,0.2168021649122238,0.2249322533607483,0.19783197343349457,0.211382120847702,0.20325203239917755,0.15718157589435575,0.105691060423851,0.09485094994306563,0.13008129596710205,0.1463414579629898,0.105691060423851,0.027100270614027977,0.09485094994306563,0.12195122241973876,0.11924119293689728,0.18699187040328977,0.10027100145816802,0.008130080997943878,0.11924119293689728,0.1436314433813095,0.06775067746639252,0.07317072898149489,0.07859078794717789,0.11924119293689728,0,0.05149051547050476,0.1815718114376068,0.18428184092044833,0.140921413898468,0.13821138441562653,0.2249322533607483,0.21409213542938232,0.2953929603099823,0.13008129596710205,0.140921413898468,0.17615176737308502,0.16260161995887756,0.2574525773525238,0.2168021649122238,0.2791327834129333,0.17615176737308502,0.1897018998861313,0.17886178195476532,0.20325203239917755,0.24390244483947757,0.17886178195476532,0.1436314433813095,0.27642276883125305,0.31978321075439453,0.16531164944171903,0.05962059646844864,0.34688347578048706,0.2601625919342041,0.24661245942115784,0.23577235639095304,0.1436314433813095,0.2249322533607483,0.18428184092044833,0.2086720913648605,0.19783197343349457,0.28997290134429926,0.28184282779693604,0.2520325183868408,0.24932248890399927,0.2249322533607483,0.24661245942115784,0.13821138441562653,0.16531164944171903,0.46070459485054016,0.3794037997722626,0.23035229742527008,0.2249322533607483,0.2222222238779068,0.27642276883125305,0.2791327834129333,0.16802167892456055,0.09756097197532652,0.31978321075439453,0.27642276883125305,0.27642276883125305,0.2628726363182068,0.12195122241973876,0.20596206188201904,0.24661245942115784,0.4525745213031769,0.3360433578491211,0.40108400583267206,0.5121951103210449,0.7804877758026123,1,0.769647717475891,0.5365853905677795,0.8021680116653441,0.35230353474617004,0.3360433578491211,0.28997290134429926,0.26829269528388977,0.31436315178871155,0.28184282779693604,0.20596206188201904,0.18699187040328977,0.2330623269081116,0.18428184092044833,0.1436314433813095,0.2926829159259796,0.31707316637039185,0.2601625919342041,0.2168021649122238,0.16531164944171903,0.16531164944171903,0,0,0,0,0,0,0,0,0,0,0,0,0,0,0,0,0,0,0,0,0,0,0,0,0,0,0,0,0,0,0,0,0,0,0,0,0,0,0,0,0,0,0,0,0,0,0,0,0,0,0,0,0,0,0,0,0,0,0,0,0,0,0,0,0,0,0,0,0",0,Class 0 : Normal,"0.5346725583076477,0.00163224374409765,0.0011806604452431202,0.4625144898891449",3,Class 3 : Unclassifiable Beat
